08-08-2017 15:32:24

Radiation device:	U04 Accelerator
Energy:	6 MV
Controller:	CCU
Measurement device:	NWP484841
Field detector:	Thimble
Reference detector:	Thimble
SAD:	1000 mm
SSD:	1000 mm
Field size:	400 x 400 mm
Gantry angle:	0
Measurement medium:	Water
Scan type:	DiagonalMpPm
Scan mode:	Continuous

Points [mm]:
Inline	Crossline	Depth	Normalized field	Current field	Ratio
237.2	-237.2	50.0	3.7	10406	4.5
236.7	-236.8	50.0	3.8	10566	4.6
236.0	-236.2	50.0	3.9	11034	4.8
235.7	-235.9	50.0	4.0	11116	4.8
235.4	-235.6	50.0	4.0	11144	4.8
235.1	-235.3	50.0	4.0	11103	4.8
234.9	-235.0	50.0	4.0	11308	4.9
234.6	-234.6	50.0	4.0	11330	4.9
234.2	-234.2	50.0	4.1	11457	4.9
233.7	-233.8	50.0	4.0	11378	4.9
233.4	-233.5	50.0	4.1	11490	5.0
233.0	-233.2	50.0	4.1	11539	5.0
232.7	-232.8	50.0	4.2	11841	5.1
232.4	-232.4	50.0	4.2	11910	5.1
232.0	-232.1	50.0	4.2	11886	5.1
231.7	-231.7	50.0	4.3	12056	5.2
231.3	-231.4	50.0	4.3	12091	5.2
230.9	-231.0	50.0	4.4	12239	5.3
230.6	-230.7	50.0	4.4	12431	5.4
230.2	-230.3	50.0	4.4	12452	5.4
229.9	-229.9	50.0	4.4	12455	5.4
229.5	-229.6	50.0	4.5	12657	5.5
229.2	-229.2	50.0	4.6	12788	5.5
228.8	-228.9	50.0	4.7	13136	5.7
228.4	-228.5	50.0	4.7	13206	5.7
228.1	-228.1	50.0	4.7	13281	5.7
227.8	-227.8	50.0	4.7	13136	5.7
227.4	-227.4	50.0	4.8	13489	5.8
227.0	-227.1	50.0	4.8	13604	5.9
226.7	-226.7	50.0	4.9	13748	5.9
226.3	-226.4	50.0	4.9	13775	5.9
226.0	-226.0	50.0	4.9	13811	6.0
225.6	-225.7	50.0	5.0	14040	6.1
225.3	-225.3	50.0	5.1	14234	6.1
224.9	-225.0	50.0	5.1	14277	6.2
224.6	-224.6	50.0	5.2	14472	6.2
224.2	-224.3	50.0	5.2	14600	6.3
223.8	-223.9	50.0	5.2	14578	6.3
223.5	-223.5	50.0	5.2	14679	6.3
223.1	-223.2	50.0	5.3	14885	6.4
222.8	-222.8	50.0	5.4	15117	6.5
222.4	-222.5	50.0	5.4	15280	6.6
222.1	-222.1	50.0	5.5	15321	6.6
221.7	-221.8	50.0	5.5	15577	6.7
221.3	-221.4	50.0	5.5	15575	6.7
221.0	-221.0	50.0	5.6	15623	6.7
220.6	-220.7	50.0	5.6	15830	6.8
220.3	-220.3	50.0	5.7	16023	6.9
219.9	-220.0	50.0	5.7	16115	6.9
219.6	-219.6	50.0	5.7	16086	6.9
219.2	-219.3	50.0	5.8	16411	7.1
218.8	-218.9	50.0	5.8	16401	7.1
218.4	-218.6	50.0	5.8	16402	7.1
218.1	-218.2	50.0	6.0	16747	7.2
217.7	-217.9	50.0	6.0	16904	7.3
217.4	-217.5	50.0	6.0	16990	7.3
217.1	-217.1	50.0	6.1	17222	7.4
216.7	-216.8	50.0	6.2	17346	7.5
216.3	-216.4	50.0	6.2	17545	7.6
216.0	-216.1	50.0	6.3	17719	7.6
215.6	-215.7	50.0	6.3	17690	7.6
215.3	-215.4	50.0	6.4	18013	7.8
214.9	-215.0	50.0	6.5	18121	7.8
214.5	-214.6	50.0	6.5	18306	7.9
214.2	-214.3	50.0	6.6	18653	8.0
213.8	-213.9	50.0	6.6	18580	8.0
213.5	-213.6	50.0	6.7	18694	8.1
213.1	-213.2	50.0	6.8	19085	8.2
212.7	-212.8	50.0	6.8	19224	8.3
212.4	-212.5	50.0	6.8	19215	20.0
212.0	-212.1	50.0	7.0	19632	20.0
211.7	-211.8	50.0	7.0	19706	20.0
211.3	-211.4	50.0	7.1	20021	8.6
211.0	-211.1	50.0	7.1	20054	8.6
210.6	-210.7	50.0	7.2	20251	8.7
210.3	-210.3	50.0	7.3	20444	8.8
209.9	-210.0	50.0	7.4	20670	8.9
209.6	-209.6	50.0	7.4	20775	9.0
209.2	-209.3	50.0	7.4	20910	9.0
208.8	-208.9	50.0	7.5	21119	9.1
208.5	-208.6	50.0	7.6	21378	9.2
208.1	-208.2	50.0	7.7	21711	9.4
207.8	-207.9	50.0	7.9	22166	9.6
207.4	-207.5	50.0	7.9	22166	9.6
207.1	-207.1	50.0	8.0	22428	9.7
206.7	-206.8	50.0	8.0	22491	9.7
206.3	-206.4	50.0	8.2	22898	9.9
206.0	-206.1	50.0	8.2	22996	9.9
205.6	-205.7	50.0	8.3	23218	10.0
205.3	-205.4	50.0	8.4	23657	10.2
204.9	-205.0	50.0	8.6	24030	10.4
204.6	-204.7	50.0	8.6	24208	10.4
204.2	-204.3	50.0	8.7	24331	10.5
203.8	-203.9	50.0	8.8	24735	10.7
203.5	-203.6	50.0	8.9	25035	10.8
203.1	-203.2	50.0	9.1	25431	11.0
202.8	-202.8	50.0	9.1	25637	11.0
202.4	-202.5	50.0	9.4	26316	11.3
202.1	-202.2	50.0	9.5	26593	11.5
201.7	-201.8	50.0	9.6	26895	11.6
201.3	-201.4	50.0	9.8	27668	11.9
201.0	-201.1	50.0	10.0	28067	12.1
200.6	-200.7	50.0	10.2	28699	12.4
200.2	-200.4	50.0	10.3	28892	12.4
199.9	-200.0	50.0	10.5	29451	12.7
199.5	-199.6	50.0	10.7	30083	13.0
199.2	-199.3	50.0	10.9	30705	13.2
198.8	-199.0	50.0	11.0	30985	13.3
198.5	-198.6	50.0	11.3	31766	13.7
198.1	-198.2	50.0	11.4	32091	13.8
197.8	-197.9	50.0	11.8	33046	14.2
197.4	-197.5	50.0	12.0	33665	14.5
197.0	-197.2	50.0	12.2	34404	14.9
196.7	-196.8	50.0	12.5	35150	15.2
196.3	-196.5	50.0	12.8	36056	15.5
196.0	-196.1	50.0	13.0	36549	15.8
195.6	-195.8	50.0	13.4	37539	16.2
195.3	-195.4	50.0	13.7	38602	16.6
194.9	-195.0	50.0	14.2	39890	17.2
194.6	-194.7	50.0	14.6	41092	17.7
194.2	-194.3	50.0	15.2	42771	18.4
193.8	-193.9	50.0	15.8	44374	19.1
193.5	-193.6	50.0	16.4	46028	19.8
193.1	-193.3	50.0	17.0	47827	20.6
192.8	-192.9	50.0	17.9	50282	21.7
192.4	-192.5	50.0	19.0	53314	23.0
192.1	-192.2	50.0	20.1	56515	24.3
191.7	-191.8	50.0	21.7	60962	26.2
191.4	-191.4	50.0	23.2	65130	28.1
191.0	-191.1	50.0	25.4	71331	30.7
190.7	-190.7	50.0	27.4	76862	33.2
190.3	-190.4	50.0	29.7	83454	36.0
189.9	-190.0	50.0	32.5	91214	39.3
189.6	-189.7	50.0	35.0	98372	42.4
189.3	-189.3	50.0	38.3	107565	46.3
188.9	-188.9	50.0	41.0	115258	49.7
188.5	-188.6	50.0	44.7	125519	54.1
188.1	-188.2	50.0	47.9	134566	58.0
187.8	-187.9	50.0	50.9	142858	61.5
187.4	-187.5	50.0	53.6	150490	64.8
187.1	-187.2	50.0	56.3	158126	68.1
186.7	-186.8	50.0	58.9	165488	71.3
186.4	-186.4	50.0	61.4	172530	74.2
186.0	-186.1	50.0	63.6	178726	77.1
185.7	-185.7	50.0	65.6	184387	79.5
185.3	-185.4	50.0	67.4	189238	81.4
185.0	-185.0	50.0	68.8	193419	83.4
184.6	-184.7	50.0	70.3	197543	85.1
184.2	-184.3	50.0	71.6	201216	86.6
183.9	-183.9	50.0	72.9	204740	88.2
183.5	-183.6	50.0	73.9	207572	89.5
183.2	-183.2	50.0	75.0	210618	90.7
182.8	-182.9	50.0	75.9	213117	91.8
182.5	-182.5	50.0	76.8	215795	93.1
182.1	-182.2	50.0	77.6	218114	94.0
181.8	-181.8	50.0	78.7	221093	95.2
181.4	-181.4	50.0	79.4	223020	96.1
181.1	-181.1	50.0	80.4	225991	97.4
180.7	-180.7	50.0	81.1	227883	98.2
180.3	-180.4	50.0	82.4	231523	99.7
180.0	-180.0	50.0	83.4	234339	100.9
179.6	-179.7	50.0	84.0	236119	101.8
179.3	-179.3	50.0	85.1	238974	102.9
178.9	-178.9	50.0	86.1	241938	104.3
178.6	-178.6	50.0	87.0	244327	105.2
178.2	-178.2	50.0	87.9	247070	106.5
177.8	-177.9	50.0	88.5	248594	107.3
177.5	-177.5	50.0	89.7	251964	108.6
177.1	-177.1	50.0	90.6	254392	109.6
176.8	-176.8	50.0	91.7	257670	111.0
176.4	-176.4	50.0	92.6	260144	112.1
176.0	-176.1	50.0	93.8	263628	113.5
175.5	-175.5	50.0	95.0	266969	114.9
175.0	-175.0	50.0	96.6	271472	117.2
174.4	-174.5	50.0	97.7	274543	118.3
174.0	-174.1	50.0	98.4	276557	119.3
173.6	-173.7	50.0	99.4	279229	120.3
173.2	-173.2	50.0	100.3	281771	121.5
172.7	-172.8	50.0	100.9	283582	122.1
172.1	-172.3	50.0	101.8	285992	123.2
171.5	-171.7	50.0	102.0	286643	123.6
171.0	-171.1	50.0	102.3	287521	123.8
170.7	-170.7	50.0	103.1	289535	124.7
170.7	-170.6	50.0	103.1	289731	124.9
170.3	-170.4	50.0	103.9	291770	125.9
169.9	-170.0	50.0	104.2	292757	126.0
169.6	-169.6	50.0	104.5	293538	126.5
169.2	-169.2	50.0	105.0	294926	127.1
168.8	-168.9	50.0	105.3	295701	127.3
168.4	-168.5	50.0	105.5	296400	127.7
168.1	-168.2	50.0	105.8	297097	128.2
167.7	-167.8	50.0	105.9	297556	128.4
167.4	-167.4	50.0	106.3	298753	128.5
167.0	-167.1	50.0	106.5	299177	129.0
166.6	-166.7	50.0	106.8	299937	129.5
166.2	-166.4	50.0	107.1	300965	129.8
165.9	-166.0	50.0	107.3	301486	129.9
165.5	-165.6	50.0	107.8	302993	130.4
165.2	-165.3	50.0	108.2	304113	130.9
164.8	-164.9	50.0	108.0	303471	130.7
164.4	-164.5	50.0	108.3	304133	131.0
164.1	-164.2	50.0	108.4	304400	131.2
163.7	-163.8	50.0	108.6	304984	131.4
163.3	-163.4	50.0	108.4	304446	131.2
163.0	-163.1	50.0	108.7	305454	131.6
162.6	-162.7	50.0	109.2	306770	131.9
162.2	-162.3	50.0	109.5	307567	132.5
161.8	-162.0	50.0	109.4	307234	132.2
161.5	-161.6	50.0	109.6	308029	132.7
161.1	-161.2	50.0	109.8	308366	132.8
160.8	-160.8	50.0	109.8	308595	133.0
160.4	-160.5	50.0	109.8	308418	133.0
160.0	-160.1	50.0	109.7	308284	132.9
159.6	-159.8	50.0	109.9	308866	132.9
159.3	-159.4	50.0	109.9	308618	132.9
158.9	-159.0	50.0	109.8	308464	132.8
158.5	-158.7	50.0	110.3	309841	133.2
158.2	-158.3	50.0	110.1	309352	133.4
157.8	-157.9	50.0	109.5	307622	132.4
157.4	-157.6	50.0	109.7	308100	132.5
157.0	-157.2	50.0	109.7	308120	132.6
156.7	-156.8	50.0	109.8	308479	132.8
156.3	-156.4	50.0	110.1	309218	133.1
156.0	-156.0	50.0	109.4	307486	132.6
155.6	-155.7	50.0	109.2	306886	132.3
155.2	-155.3	50.0	109.3	306936	132.0
154.9	-154.9	50.0	109.1	306403	132.3
154.5	-154.5	50.0	109.3	306961	132.4
154.1	-154.2	50.0	109.2	306835	132.2
153.8	-153.8	50.0	109.5	307544	132.4
153.4	-153.5	50.0	109.1	306590	132.1
153.1	-153.1	50.0	109.1	306609	132.1
152.7	-152.7	50.0	109.2	306652	132.3
152.4	-152.4	50.0	109.4	307446	132.6
152.0	-152.0	50.0	109.1	306631	132.1
151.6	-151.6	50.0	108.9	306017	131.7
151.2	-151.3	50.0	109.3	307137	132.3
150.9	-150.9	50.0	109.4	307266	132.7
150.5	-150.6	50.0	109.6	307829	132.9
150.1	-150.2	50.0	110.1	309245	133.7
149.8	-149.8	50.0	109.8	308457	133.1
149.4	-149.5	50.0	109.4	307379	132.4
149.1	-149.1	50.0	109.5	307747	132.5
148.7	-148.7	50.0	109.9	308638	133.1
148.3	-148.4	50.0	109.9	308719	133.1
148.0	-148.0	50.0	109.9	308852	133.0
147.6	-147.6	50.0	109.7	308226	132.7
147.2	-147.3	50.0	110.0	309135	132.9
146.9	-146.9	50.0	110.1	309189	133.2
146.5	-146.5	50.0	110.1	309395	133.4
146.1	-146.1	50.0	110.2	309602	133.6
145.7	-145.8	50.0	109.6	308020	132.7
145.4	-145.4	50.0	109.8	308465	132.6
145.0	-145.0	50.0	110.3	309746	133.3
144.6	-144.7	50.0	110.7	310882	134.3
144.3	-144.3	50.0	110.0	309052	133.4
143.9	-143.9	50.0	109.8	308571	132.8
143.5	-143.6	50.0	109.9	308812	132.8
143.1	-143.2	50.0	110.2	309630	133.5
142.8	-142.8	50.0	110.2	309596	133.5
142.4	-142.4	50.0	110.3	309837	133.3
142.0	-142.1	50.0	110.1	309264	133.1
141.7	-141.7	50.0	110.0	308984	133.1
141.3	-141.4	50.0	110.2	309541	133.4
140.9	-141.0	50.0	110.4	310025	133.6
140.6	-140.6	50.0	110.2	309677	133.4
140.2	-140.2	50.0	109.9	308757	132.7
139.8	-139.9	50.0	110.2	309513	133.3
139.4	-139.5	50.0	110.5	310358	133.9
139.1	-139.1	50.0	110.5	310328	133.8
138.7	-138.8	50.0	110.5	310531	133.8
138.3	-138.4	50.0	109.9	308802	132.8
138.0	-138.0	50.0	110.0	308924	132.8
137.6	-137.7	50.0	110.6	310729	133.8
137.2	-137.3	50.0	110.2	309716	133.4
136.9	-136.9	50.0	110.1	309403	133.3
136.5	-136.6	50.0	110.2	309527	133.2
136.1	-136.2	50.0	110.2	309460	133.6
135.7	-135.9	50.0	110.2	309607	133.4
135.4	-135.5	50.0	110.2	309515	133.2
135.0	-135.2	50.0	110.3	309934	133.7
134.7	-134.8	50.0	110.4	310234	133.8
134.3	-134.4	50.0	110.2	309729	133.5
133.9	-134.0	50.0	110.1	309370	133.2
133.5	-133.7	50.0	110.5	310369	133.8
133.2	-133.3	50.0	110.5	310337	133.8
132.8	-132.9	50.0	110.5	310510	133.8
132.4	-132.6	50.0	110.0	309163	133.0
132.1	-132.2	50.0	110.1	309430	133.1
131.7	-131.8	50.0	110.0	308924	133.2
131.4	-131.5	50.0	109.9	308748	132.9
131.0	-131.1	50.0	110.1	309256	133.0
130.6	-130.7	50.0	110.0	309098	133.2
130.2	-130.4	50.0	110.2	309591	133.5
129.9	-130.0	50.0	110.1	309316	133.4
129.5	-129.6	50.0	109.8	308547	132.8
129.1	-129.2	50.0	110.1	309216	133.3
128.8	-128.9	50.0	110.0	309116	132.9
128.4	-128.5	50.0	110.1	309230	133.0
128.0	-128.1	50.0	110.2	309700	133.7
127.7	-127.8	50.0	110.2	309567	133.6
127.3	-127.4	50.0	110.0	308902	133.0
126.9	-127.0	50.0	109.8	308580	132.8
126.6	-126.7	50.0	109.9	308714	132.9
126.2	-126.3	50.0	110.3	309933	133.7
125.9	-125.9	50.0	110.5	310566	133.8
125.5	-125.5	50.0	110.4	310201	133.4
125.1	-125.2	50.0	110.0	309050	132.9
124.8	-124.8	50.0	110.2	309500	133.6
124.4	-124.4	50.0	110.2	309696	133.4
124.0	-124.1	50.0	110.1	309427	133.2
123.7	-123.7	50.0	110.1	309273	133.1
123.3	-123.3	50.0	110.1	309364	133.0
122.9	-123.0	50.0	110.2	309508	133.0
122.6	-122.6	50.0	110.4	310153	133.6
122.2	-122.2	50.0	110.5	310492	133.9
121.8	-121.9	50.0	110.3	309924	133.2
121.5	-121.5	50.0	109.9	308729	132.9
121.1	-121.2	50.0	110.0	309079	132.9
120.7	-120.8	50.0	110.3	309856	133.5
120.3	-120.4	50.0	110.1	309290	133.0
120.0	-120.1	50.0	109.9	308806	132.7
119.6	-119.7	50.0	110.0	309048	133.1
119.3	-119.3	50.0	110.0	309059	133.4
118.9	-119.0	50.0	110.5	310444	133.8
118.5	-118.6	50.0	110.6	310583	133.6
118.2	-118.2	50.0	110.2	309568	133.3
117.8	-117.9	50.0	109.9	308699	133.0
117.4	-117.5	50.0	110.2	309492	133.1
117.1	-117.1	50.0	110.5	310576	133.6
116.7	-116.8	50.0	110.4	310168	133.5
116.3	-116.4	50.0	110.5	310382	133.8
116.0	-116.0	50.0	110.6	310782	134.0
115.6	-115.7	50.0	110.7	310975	133.8
115.2	-115.3	50.0	110.5	310440	133.6
114.9	-114.9	50.0	110.6	310690	133.7
114.5	-114.5	50.0	110.7	311083	133.9
114.1	-114.2	50.0	110.4	310180	133.6
113.8	-113.8	50.0	110.2	309728	133.4
113.4	-113.5	50.0	110.4	310188	133.3
113.0	-113.1	50.0	110.3	309914	133.2
112.7	-112.7	50.0	110.5	310522	133.6
112.3	-112.3	50.0	110.8	311227	134.0
111.9	-111.9	50.0	110.8	311232	134.0
111.6	-111.6	50.0	110.9	311650	134.1
111.2	-111.2	50.0	110.6	310669	134.0
110.8	-110.8	50.0	110.5	310306	133.7
110.4	-110.5	50.0	110.5	310385	133.8
110.1	-110.1	50.0	110.6	310590	133.8
109.7	-109.7	50.0	110.4	310113	133.6
109.3	-109.4	50.0	110.5	310308	133.7
109.0	-109.0	50.0	110.3	309816	133.4
108.6	-108.6	50.0	110.3	309811	133.6
108.2	-108.3	50.0	110.4	310046	133.6
107.8	-107.9	50.0	110.2	309478	133.2
107.5	-107.5	50.0	110.2	309715	133.3
107.1	-107.2	50.0	110.1	309350	133.4
106.7	-106.8	50.0	110.0	308911	133.1
106.4	-106.4	50.0	110.3	309897	133.4
106.0	-106.1	50.0	110.3	309748	133.2
105.6	-105.7	50.0	109.9	308759	132.9
105.3	-105.4	50.0	109.9	308707	132.8
104.9	-105.0	50.0	109.8	308593	132.8
104.5	-104.6	50.0	110.1	309290	133.0
104.2	-104.2	50.0	110.1	309417	133.3
103.8	-103.9	50.0	110.3	309830	133.2
103.4	-103.5	50.0	110.3	309804	133.2
103.1	-103.1	50.0	110.1	309362	133.1
102.7	-102.8	50.0	109.9	308887	132.8
102.3	-102.4	50.0	109.9	308743	132.8
101.9	-102.0	50.0	109.6	307999	132.4
101.6	-101.7	50.0	109.6	307790	132.3
101.2	-101.3	50.0	109.6	307990	132.4
100.8	-100.9	50.0	109.8	308528	133.0
100.4	-100.6	50.0	109.8	308346	132.7
100.1	-100.2	50.0	109.8	308444	132.4
99.7	-99.8	50.0	109.8	308408	132.7
99.4	-99.5	50.0	109.4	307438	132.6
99.0	-99.1	50.0	109.8	308383	132.7
98.6	-98.7	50.0	109.7	308134	132.6
98.3	-98.4	50.0	109.4	307387	132.3
97.9	-98.0	50.0	109.3	306935	132.3
97.5	-97.6	50.0	109.4	307262	132.6
97.1	-97.3	50.0	109.7	308056	132.6
96.8	-96.9	50.0	109.4	307395	132.4
96.4	-96.5	50.0	109.3	306943	132.4
96.1	-96.2	50.0	109.2	306856	132.3
95.7	-95.8	50.0	109.2	306788	132.2
95.4	-95.4	50.0	109.2	306685	132.1
95.0	-95.0	50.0	109.0	306203	131.8
94.6	-94.7	50.0	109.1	306584	132.0
94.2	-94.3	50.0	108.9	305924	131.6
93.9	-93.9	50.0	109.1	306513	131.9
93.5	-93.6	50.0	109.3	307122	132.0
93.1	-93.2	50.0	109.2	306913	132.0
92.8	-92.9	50.0	109.5	307713	132.6
92.4	-92.5	50.0	109.4	307235	132.3
92.1	-92.1	50.0	109.0	306188	131.8
91.7	-91.7	50.0	109.2	306726	132.0
91.3	-91.4	50.0	109.1	306537	131.9
90.9	-91.0	50.0	109.1	306447	131.8
90.6	-90.6	50.0	109.0	306142	131.8
90.2	-90.3	50.0	108.9	306051	131.6
89.8	-89.9	50.0	108.9	305899	131.4
89.5	-89.5	50.0	109.0	306321	131.7
89.1	-89.1	50.0	109.4	307281	132.2
88.7	-88.8	50.0	108.9	305884	131.7
88.3	-88.4	50.0	109.0	306095	131.5
88.0	-88.1	50.0	108.8	305576	131.4
87.6	-87.7	50.0	108.9	305826	131.5
87.2	-87.3	50.0	108.6	305172	131.5
86.9	-87.0	50.0	109.1	306458	132.1
86.5	-86.6	50.0	109.0	306317	131.9
86.2	-86.2	50.0	108.9	305940	131.7
85.8	-85.9	50.0	108.9	306030	131.9
85.4	-85.5	50.0	108.9	305860	131.5
85.0	-85.1	50.0	108.5	304710	130.9
84.7	-84.8	50.0	108.6	305020	131.4
84.3	-84.4	50.0	108.6	305084	131.3
84.0	-84.0	50.0	108.2	303958	130.7
83.6	-83.7	50.0	108.5	304938	131.0
83.2	-83.3	50.0	108.7	305386	131.3
82.8	-82.9	50.0	108.6	305017	131.2
82.4	-82.5	50.0	108.6	305237	131.2
82.1	-82.2	50.0	108.4	304531	130.9
81.7	-81.8	50.0	108.2	304083	130.6
81.3	-81.5	50.0	108.4	304427	131.1
81.0	-81.1	50.0	108.5	304940	131.2
80.6	-80.7	50.0	108.4	304460	131.0
80.3	-80.3	50.0	108.6	305115	131.3
79.9	-80.0	50.0	108.8	305643	131.8
79.5	-79.6	50.0	108.8	305790	131.6
79.1	-79.2	50.0	108.6	305166	131.4
78.8	-78.9	50.0	108.6	305128	131.4
78.4	-78.5	50.0	108.3	304351	130.9
78.1	-78.1	50.0	108.4	304595	131.2
77.7	-77.8	50.0	108.6	305203	131.4
77.3	-77.4	50.0	108.3	304290	130.9
77.0	-77.0	50.0	108.4	304674	131.1
76.6	-76.7	50.0	108.7	305387	131.5
76.2	-76.3	50.0	108.6	305183	131.3
75.9	-75.9	50.0	108.8	305576	131.4
75.5	-75.6	50.0	108.7	305398	131.4
75.1	-75.2	50.0	108.5	304839	131.0
74.8	-74.8	50.0	108.4	304570	131.0
74.4	-74.5	50.0	108.3	304397	131.3
74.0	-74.1	50.0	108.4	304589	131.0
73.7	-73.7	50.0	108.1	303769	130.4
73.3	-73.4	50.0	108.4	304500	131.2
72.9	-73.0	50.0	108.7	305369	131.8
72.5	-72.6	50.0	108.7	305305	131.6
72.2	-72.3	50.0	108.5	304758	131.3
71.8	-71.9	50.0	108.6	304993	131.5
71.4	-71.5	50.0	108.8	305574	131.6
71.1	-71.1	50.0	108.9	305867	131.9
70.7	-70.8	50.0	108.7	305370	131.6
70.3	-70.4	50.0	108.5	304807	131.1
70.0	-70.0	50.0	108.3	304180	131.0
69.6	-69.7	50.0	108.2	304053	130.8
69.2	-69.3	50.0	108.4	304545	131.1
68.9	-68.9	50.0	108.8	305570	131.6
68.5	-68.6	50.0	108.6	305211	131.4
68.2	-68.2	50.0	108.8	305559	131.3
67.8	-67.8	50.0	108.8	305573	131.4
67.4	-67.4	50.0	108.5	304846	131.1
67.1	-67.1	50.0	108.4	304423	131.0
66.7	-66.7	50.0	108.9	305869	131.7
66.3	-66.4	50.0	108.8	305685	131.9
66.0	-66.0	50.0	108.5	304725	131.5
65.6	-65.6	50.0	108.6	305158	131.6
65.2	-65.2	50.0	108.9	306049	131.7
64.9	-64.9	50.0	109.0	306141	131.7
64.5	-64.5	50.0	108.9	305962	131.7
64.1	-64.1	50.0	108.8	305702	131.7
63.7	-63.8	50.0	108.8	305579	131.6
63.4	-63.4	50.0	108.6	305035	131.2
63.0	-63.1	50.0	108.9	306050	131.6
62.6	-62.7	50.0	108.6	304962	131.2
62.3	-62.3	50.0	108.5	304717	131.2
61.9	-62.0	50.0	108.7	305450	131.3
61.5	-61.6	50.0	108.5	304849	131.2
61.2	-61.2	50.0	108.7	305290	131.4
60.8	-60.9	50.0	108.6	305238	131.3
60.4	-60.5	50.0	108.8	305747	131.5
60.1	-60.1	50.0	109.1	306525	131.8
59.7	-59.8	50.0	108.6	305185	131.5
59.3	-59.4	50.0	108.7	305247	131.1
59.0	-59.0	50.0	108.5	304777	130.9
58.6	-58.7	50.0	108.5	304818	131.2
58.2	-58.3	50.0	108.8	305550	131.7
57.9	-57.9	50.0	108.7	305475	131.5
57.5	-57.5	50.0	108.9	305857	131.3
57.1	-57.2	50.0	108.8	305747	131.6
56.8	-56.8	50.0	109.0	306232	131.5
56.4	-56.4	50.0	108.6	305113	131.0
56.0	-56.1	50.0	108.8	305707	131.4
55.7	-55.7	50.0	108.7	305362	131.3
55.3	-55.3	50.0	108.7	305303	131.3
55.0	-55.0	50.0	108.9	305981	131.5
54.6	-54.6	50.0	108.9	306042	131.6
54.2	-54.3	50.0	108.9	305991	131.8
53.8	-53.9	50.0	108.5	304870	131.1
53.5	-53.5	50.0	108.5	304695	130.9
53.1	-53.2	50.0	108.7	305457	131.5
52.7	-52.8	50.0	108.7	305495	131.4
52.3	-52.4	50.0	108.5	304878	131.0
52.0	-52.1	50.0	108.4	304651	130.9
51.6	-51.7	50.0	108.6	305180	131.4
51.2	-51.3	50.0	108.7	305413	131.5
50.8	-51.0	50.0	108.8	305745	131.5
50.5	-50.6	50.0	108.9	305932	131.4
50.1	-50.2	50.0	108.9	305868	131.5
49.7	-49.8	50.0	109.0	306157	131.6
49.4	-49.5	50.0	109.3	307177	132.1
49.0	-49.1	50.0	109.1	306583	131.8
48.6	-48.8	50.0	109.4	307226	132.0
48.3	-48.4	50.0	109.1	306440	131.7
47.9	-48.0	50.0	109.0	306329	131.8
47.6	-47.6	50.0	109.0	306140	131.7
47.2	-47.3	50.0	109.1	306504	132.1
46.8	-46.9	50.0	109.1	306538	131.8
46.4	-46.5	50.0	109.5	307689	132.2
46.1	-46.1	50.0	109.2	306712	131.7
45.7	-45.8	50.0	109.0	306338	131.5
45.4	-45.4	50.0	109.3	307027	132.0
45.0	-45.0	50.0	109.0	306344	132.1
44.6	-44.7	50.0	109.2	306894	132.0
44.3	-44.3	50.0	109.1	306503	131.8
43.9	-43.9	50.0	109.4	307246	132.4
43.5	-43.5	50.0	109.5	307581	132.4
43.2	-43.2	50.0	109.0	306322	132.0
42.8	-42.8	50.0	109.4	307234	132.2
42.4	-42.5	50.0	109.3	306988	132.3
42.1	-42.1	50.0	109.5	307761	132.6
41.7	-41.7	50.0	109.3	307069	132.5
41.3	-41.4	50.0	109.0	306334	132.0
40.9	-41.0	50.0	109.0	306310	131.8
40.6	-40.6	50.0	109.2	306798	132.1
40.2	-40.2	50.0	109.3	306977	132.4
39.8	-39.9	50.0	109.3	306960	132.1
39.5	-39.5	50.0	109.3	307025	132.1
39.1	-39.1	50.0	109.4	307326	132.1
38.7	-38.8	50.0	109.3	307154	131.9
38.4	-38.4	50.0	109.0	306105	131.8
38.0	-38.0	50.0	109.3	306972	132.2
37.6	-37.7	50.0	108.9	305959	131.8
37.2	-37.3	50.0	108.9	305941	131.7
36.9	-36.9	50.0	109.0	306106	131.6
36.5	-36.6	50.0	109.4	307454	132.2
36.2	-36.2	50.0	109.3	307039	132.0
35.8	-35.9	50.0	109.2	306830	132.0
35.4	-35.5	50.0	109.4	307233	131.9
35.1	-35.1	50.0	109.4	307350	132.2
34.7	-34.8	50.0	109.6	307823	132.3
34.3	-34.4	50.0	109.2	306787	132.0
34.0	-34.0	50.0	109.3	307088	132.0
33.6	-33.7	50.0	109.3	307070	132.2
