Clinic: 	
Address: 	
Telephone: 	
Email: 	

Beam Description:

Radiation device	J1 MRL
Energy	7 MV Photon
Wedge:	0 °
Gantry	0 °(0°up, CW)
Collimator	0 °
SSD, SAD [cm]:  133.50 100.00
Applicator: 	Undefined
Field size [cm x cm]: 22.00 x 57.20
Field position inline (min, max) [cm]:  -11.00 11.00
Field position crossline (min, max) [cm]:  -28.60 28.60
Medium: 	PMMA

CurveType: 	Angle

Curve Description:

Measurement Time: 2015-08-03 17:10:01
Modification Time: 2015-08-03 17:10:01
Operator: 	
Measurement comment: 	MicroDiamond P1
Setup comment: 	BARA_LEFT_RIGHT
Renormalise factor: 	1.00
Curve offset [cm]:  0.00

Detector
Quantity: 	Relative Dose
Detector Type: IC15 Ion chamber (cylindrical)  Offset to P eff [cm]: -0.18 Radius: 0.68 cm
Can be used for CA24 calibration:	No

Electrometer
Electrometer type: 	CU500E
Measurement mode: 	continuous
Reference division:	-
Reference (avg, min, max):  1000 1000 1000
Measurements per point: 	1
Sampling time [ms]:  0
HV type: 	-
Normalisation value, field and reference:  0 0
Dark current, field and reference:  0 0
High voltage, field and reference [V]:  0 0
Gain, field and reference:  0 0
Range, field and reference:   

Servo
Servo type: 	MP3
Scan Speed [mm/s]:  56.25
Water surface correction [cm]:  0.00
Water offset correction [cm]:  0.00
Origin [X, Y, Z]:  0.00 0.00 0.00
Servo axis [I, C, D]: -Y  X  Z
Isocentre [I, C, D] [cm]:  0.00 0.00 0.00
Normalisation [I, C, D] [cm]:  0.00 0.00 0.00

Position A [I, C, D] [cm]:  0.00 0.00 0.00
Position B [I, C, D] [cm]:  0.00 0.00 0.00
Position C [I, C, D] [cm]:  0.00 0.00 0.00
Position D [I, C, D] [cm]:  0.00 0.00 0.00
Number Of Points:  216
Start Point [I,C,D]:  -23.27 -23.27 0.00
End Point [I,C,D]:  7.42 7.42 0.00
Points [cm]:	Inline	Crossline	Depth	Relative Dose
    23.706   23.706    0.000    1.485
    23.349   23.349    0.000    1.613
    22.992   22.992    0.000    1.722
    22.635   22.635    0.000    1.894
    22.493   22.493    0.000    1.937
    22.350   22.350    0.000    2.003
    22.207   22.207    0.000    2.111
    22.065   22.065    0.000    2.174
    21.922   21.922    0.000    2.262
    21.779   21.779    0.000    2.324
    21.636   21.636    0.000    2.454
    21.493   21.493    0.000    2.518
    21.350   21.350    0.000    2.667
    21.208   21.208    0.000    2.753
    21.137   21.137    0.000    2.863
    21.065   21.065    0.000    2.968
    20.994   20.994    0.000    3.099
    20.923   20.923    0.000    3.204
    20.851   20.851    0.000    3.422
    20.780   20.780    0.000    3.767
    20.708   20.708    0.000    4.305
    20.637   20.637    0.000    5.445
    20.566   20.566    0.000    7.683
    20.494   20.494    0.000   12.128
    20.423   20.423    0.000   19.098
    20.351   20.351    0.000   26.090
    20.280   20.280    0.000   31.113
    20.208   20.208    0.000   34.433
    20.137   20.137    0.000   36.589
    20.066   20.066    0.000   38.388
    19.994   19.994    0.000   39.551
    19.923   19.923    0.000   40.599
    19.852   19.852    0.000   41.167
    19.781   19.781    0.000   42.142
    19.638   19.638    0.000   43.051
    19.495   19.495    0.000   43.762
    19.352   19.352    0.000   44.385
    19.209   19.209    0.000   44.965
    19.066   19.066    0.000   45.438
    18.924   18.924    0.000   45.850
    18.781   18.781    0.000   46.087
    18.639   18.639    0.000   46.602
    18.496   18.496    0.000   47.224
    18.353   18.353    0.000   47.246
    18.067   18.067    0.000   48.062
    17.782   17.782    0.000   48.664
    17.496   17.496    0.000   49.395
    17.211   17.211    0.000   50.106
    16.925   16.925    0.000   50.862
    16.640   16.640    0.000   51.376
    16.354   16.354    0.000   52.070
    16.069   16.069    0.000   52.695
    15.783   15.783    0.000   53.432
    15.498   15.498    0.000   54.170
    15.212   15.212    0.000   54.861
    14.926   14.926    0.000   55.374
    14.641   14.641    0.000   56.092
    14.356   14.356    0.000   56.978
    14.070   14.070    0.000   57.410
    13.784   13.784    0.000   58.447
    13.499   13.499    0.000   59.008
    13.214   13.214    0.000   59.764
    12.928   12.928    0.000   60.575
    12.642   12.642    0.000   61.373
    12.357   12.357    0.000   62.128
    12.072   12.072    0.000   62.690
    11.786   11.786    0.000   63.609
    11.500   11.500    0.000   64.481
    11.215   11.215    0.000   65.280
    10.930   10.930    0.000   65.991
    10.644   10.644    0.000   67.049
    10.358   10.358    0.000   67.653
    10.073   10.073    0.000   68.624
     9.787    9.787    0.000   69.685
     9.502    9.502    0.000   70.653
     9.216    9.216    0.000   71.259
     8.931    8.931    0.000   72.239
     8.645    8.645    0.000   73.286
     8.360    8.360    0.000   74.087
     8.074    8.074    0.000   74.971
     7.789    7.789    0.000   76.260
     7.503    7.503    0.000   77.041
     7.423    7.423    0.000   77.455
     7.217    7.217    0.000   78.161
     7.138    7.138    0.000   78.322
     6.853    6.853    0.000   79.459
     6.567    6.567    0.000   80.597
     6.281    6.281    0.000   81.536
     5.996    5.996    0.000   82.669
     5.711    5.711    0.000   83.567
     5.425    5.425    0.000   84.600
     5.139    5.139    0.000   85.505
     4.854    4.854    0.000   86.812
     4.568    4.568    0.000   87.934
     4.283    4.283    0.000   88.867
     3.997    3.997    0.000   90.051
     3.712    3.712    0.000   90.976
     3.426    3.426    0.000   91.926
     3.141    3.141    0.000   93.031
     2.855    2.855    0.000   93.913
     2.570    2.570    0.000   94.917
     2.284    2.284    0.000   95.665
     1.998    1.998    0.000   96.509
     1.713    1.713    0.000   97.383
     1.428    1.428    0.000   98.156
     1.142    1.142    0.000   98.634
     0.856    0.856    0.000   99.130
     0.571    0.571    0.000   99.589
     0.286    0.286    0.000   99.858
     0.000    0.000    0.000  100.043
    -0.286   -0.286    0.000   99.804
    -0.571   -0.571    0.000   99.720
    -0.856   -0.856    0.000   99.701
    -1.142   -1.142    0.000   99.266
    -1.428   -1.428    0.000   98.776
    -1.713   -1.713    0.000   98.196
    -1.998   -1.998    0.000   97.375
    -2.284   -2.284    0.000   96.634
    -2.570   -2.570    0.000   95.909
    -2.855   -2.855    0.000   94.734
    -3.141   -3.141    0.000   94.028
    -3.426   -3.426    0.000   93.041
    -3.712   -3.712    0.000   92.019
    -3.997   -3.997    0.000   90.884
    -4.283   -4.283    0.000   89.833
    -4.568   -4.568    0.000   88.938
    -4.854   -4.854    0.000   87.866
    -5.139   -5.139    0.000   86.649
    -5.425   -5.425    0.000   85.553
    -5.711   -5.711    0.000   84.289
    -5.996   -5.996    0.000   83.338
    -6.281   -6.281    0.000   82.413
    -6.567   -6.567    0.000   81.238
    -6.853   -6.853    0.000   80.120
    -7.138   -7.138    0.000   78.940
    -7.423   -7.423    0.000   77.971
    -7.709   -7.709    0.000   77.177
    -7.995   -7.995    0.000   76.040
    -8.280   -8.280    0.000   75.158
    -8.565   -8.565    0.000   74.042
    -8.851   -8.851    0.000   72.732
    -9.137   -9.137    0.000   72.136
    -9.422   -9.422    0.000   71.400
    -9.707   -9.707    0.000   70.248
    -9.993   -9.993    0.000   69.404
   -10.279  -10.279    0.000   68.531
   -10.564  -10.564    0.000   67.556
   -10.850  -10.850    0.000   66.643
   -11.135  -11.135    0.000   65.795
   -11.420  -11.420    0.000   64.766
   -11.706  -11.706    0.000   64.144
   -11.992  -11.992    0.000   63.372
   -12.277  -12.277    0.000   62.386
   -12.562  -12.562    0.000   61.700
   -12.848  -12.848    0.000   60.599
   -13.134  -13.134    0.000   60.085
   -13.419  -13.419    0.000   59.234
   -13.704  -13.704    0.000   58.607
   -13.990  -13.990    0.000   57.751
   -14.276  -14.276    0.000   57.258
   -14.561  -14.561    0.000   56.337
   -14.846  -14.846    0.000   55.734
   -15.132  -15.132    0.000   54.945
   -15.418  -15.418    0.000   54.321
   -15.703  -15.703    0.000   53.592
   -15.989  -15.989    0.000   52.802
   -16.274  -16.274    0.000   52.310
   -16.560  -16.560    0.000   51.432
   -16.845  -16.845    0.000   50.726
   -17.131  -17.131    0.000   50.105
   -17.416  -17.416    0.000   49.441
   -17.702  -17.702    0.000   48.864
   -17.987  -17.987    0.000   48.161
   -18.273  -18.273    0.000   47.434
   -18.416  -18.416    0.000   47.173
   -18.559  -18.559    0.000   46.604
   -18.701  -18.701    0.000   46.300
   -18.844  -18.844    0.000   45.872
   -18.987  -18.987    0.000   45.551
   -19.129  -19.129    0.000   44.953
   -19.272  -19.272    0.000   44.403
   -19.415  -19.415    0.000   43.749
   -19.558  -19.558    0.000   43.028
   -19.701  -19.701    0.000   41.886
   -19.772  -19.772    0.000   41.287
   -19.844  -19.844    0.000   40.195
   -19.914  -19.914    0.000   39.040
   -19.986  -19.986    0.000   37.724
   -20.057  -20.057    0.000   35.837
   -20.129  -20.129    0.000   32.817
   -20.200  -20.200    0.000   28.873
   -20.271  -20.271    0.000   23.182
   -20.343  -20.343    0.000   16.395
   -20.414  -20.414    0.000   10.680
   -20.486  -20.486    0.000    7.026
   -20.557  -20.557    0.000    5.068
   -20.628  -20.628    0.000    4.109
   -20.700  -20.700    0.000    3.534
   -20.771  -20.771    0.000    3.253
   -20.843  -20.843    0.000    3.082
   -20.914  -20.914    0.000    2.951
   -20.986  -20.986    0.000    2.763
   -21.057  -21.057    0.000    2.697
   -21.128  -21.128    0.000    2.611
   -21.270  -21.270    0.000    2.485
   -21.413  -21.413    0.000    2.335
   -21.556  -21.556    0.000    2.292
   -21.699  -21.699    0.000    2.165
   -21.842  -21.842    0.000    2.058
   -21.985  -21.985    0.000    1.992
   -22.127  -22.127    0.000    1.908
   -22.270  -22.270    0.000    1.822
   -22.413  -22.413    0.000    1.781
   -22.555  -22.555    0.000    1.715
   -22.912  -22.912    0.000    1.608
   -23.269  -23.269    0.000    1.481
Scan Angle:  45
